period,frequency,voltage
9.00E-04,1.11E+03,4.40E-01
5.00E-04,2.00E+03,4.20E-01
3.20E-04,3.13E+03,4.20E-01
2.35E-04,4.26E+03,4.20E-01
1.92E-04,5.21E+03,3.45E-01
1.64E-04,6.10E+03,3.20E-01
1.04E-04,9.62E+03,2.40E-01
9.10E-05,1.10E+04,2.15E-01
8.20E-05,1.22E+04,2.00E-01
7.60E-05,1.32E+04,1.85E-01
7.10E-05,1.41E+04,1.80E-01
6.40E-05,1.56E+04,1.64E-01
5.90E-05,1.69E+04,1.52E-01
5.20E-05,1.92E+04,1.36E-01
4.25E-05,2.35E+04,1.08E-01
2.90E-05,3.45E+04,7.40E-02
1.86E-05,5.38E+04,4.80E-02
